index,T,flux
1,304.906,2308051870712442
2,307.187,3136233585737233
3,309.484,5869174827002142
4,311.765,3300252692646280
5,314.031,1959578337169042
6,316.296,3750761024767613
7,318.625,3032181299029654
8,320.906,2654128635412940
9,323.156,2393324849856543
10,325.421,3467381971765201
11,327.703,5026586582944585
12,329.984,3356300536515973
13,332.25,4177785215222891
14,334.515,4720592803737591
15,336.718,4180444380795650
16,338.984,4677397685002069
17,341.25,3189799792212373
18,343.593,3686604523397226
19,345.875,6771979977706901
20,348.14,2895647975003915
21,350.531,2564505449740235
22,352.796,3981445604176943
23,355.125,4096106025319088
24,357.406,3817437263988116
25,359.671,5363851681087958
26,361.906,4817485771736108
27,364.218,2924265106173407
28,366.562,5914109898191993
29,368.828,4056394472611682
30,371.093,4084505411074821
31,373.343,4073375911475754
32,375.687,4030678596876319
33,378.031,3179644354621063
34,380.25,4465613115144601
35,382.578,5739623042486289
36,384.859,2893304127194891
37,387.171,6973791890545300
38,389.437,5790365811882717
39,391.796,2068293807425164
40,394.078,4524912111680457
41,396.343,6242015907788899
42,398.64,5290574099660777
43,400.906,4444865482710224
44,403.171,2531369076322092
45,405.453,6397142879432771
46,407.812,4360884497659215
47,410.125,3148902803996784
48,412.453,4100928908798457
49,414.796,4612809135298053
50,417.062,5193411155646982
51,419.343,4807437837572522
52,421.671,5459667796916495
53,423.953,3692361613962360
54,426.218,4964365101107724
55,428.5,6889219311869927
56,430.828,3632218419568069
57,433.109,4866213840364919
58,435.421,6201949233621767
59,437.687,5901127616991534
60,440.031,4523159553434496
61,442.312,4157448193110774
62,444.593,4412252735895609
63,446.89,4469409821000737
64,449.234,7030230629769091
65,451.515,5886160739716619
66,453.812,5453130990548825
67,456.093,5377921290632108
68,458.421,6785015883062700
69,460.75,7442817849513634
70,463.109,6594344177024385
71,465.39,6527227452207286
72,467.656,5852399288291707
73,469.921,4578315629643738
74,472.343,7063995045988762
75,474.625,7620826473013902
76,476.89,4329331158730520
77,479.187,8279377260894242
78,481.468,7506802237348500
79,483.75,4860296481686572
80,486.046,5349537555621897
81,488.39,6901685296890940
82,490.703,5775016070161446
83,493.093,7861962426109051
84,495.406,4852619332908127
85,497.625,9885170943310132
86,499.89,9292075943112534
87,502.171,10107586928923774
88,504.39,3557338721615888
89,506.671,6461357542498802
90,508.968,8837936676417830
91,511.25,9237156700780110
92,513.531,8864814369267406
93,515.859,9663575687982000
94,518.25,9844014011683734
95,520.531,7129400361516552
96,522.75,5566604067274286
97,525.062,6195553812383281
98,527.343,8644399056804015
99,529.593,6402945886123749
100,531.828,8333097154939325
101,534.046,4602056366170268
102,536.359,9812466834923554
103,538.609,7620191985520842
104,540.859,7263496901913235
105,543.234,7226950095785295
106,545.593,8381159871351133
107,547.812,11395713207733278
108,550.031,9130045262007394
109,552.281,9364066215132460
110,554.671,10751086332665016
111,556.937,8443614994770646
112,559.187,8471271241769050
113,561.421,7588455978002495
114,563.687,8136541465460880
115,565.906,8094133014388925
116,568.125,6362640930227226
117,570.406,8704885332072699
118,572.656,8760891815939563
119,574.921,7551739271548965
120,577.156,8881428586947402
121,579.546,10597735656111114
122,581.765,9792317630020624
123,584.062,8942966880421923
124,586.281,12430408224674798
125,588.5,8548029998366550
126,590.656,11499262061831706
127,592.937,10014890725352544
128,595.234,6736790785014213
129,597.5,11170726327770362
130,599.812,9752469130101150
131,602.078,9547367453664060
132,604.359,14202038350080946
133,606.515,11147985198188396
134,608.718,13515581990174618
135,610.984,9257754381461678
136,613.343,9950169307097316
137,615.625,12082251545747636
138,617.828,10356412037063164
139,620.093,10376368358253794
140,622.375,13179202482139260
141,624.75,13351486435238378
142,627.031,13710152531738784
143,629.281,9352653874631224
144,631.562,10824476943172894
145,633.843,10350152562594698
146,636.125,11780114462042130
147,638.359,15498258437538830
148,640.609,11721114504922300
149,642.921,11522554553508236
150,645.25,11668359358817420
151,647.546,16068544487945764
152,649.828,14372181785744668
153,652.156,12817127741945722
154,654.5,11275701506455852
155,656.921,11774203644235908
156,659.14,12343407868378986
157,661.421,9879100724518618
158,663.75,9445605404121236
159,666.078,11082186600645018
160,668.421,13139501087267004
161,670.687,12292050550394690
162,673.015,11965507625852022
163,675.39,12857440875850474
164,677.687,12220374464776746
165,680,8494933778381136
166,682.312,11152287894300486
167,684.609,13960708435925028
168,686.921,15816140281929656
169,689.187,8855860020302351
170,691.468,13818814222538550
171,693.703,14336620088270290
172,696.046,12117089987434518
173,698.375,11266427650464810
174,700.687,13713170809901060
175,703.093,9245144476605080
176,705.359,15081157299656518
177,707.625,12221911024375656
178,710.062,16087837762737382
179,712.343,12531586957681032
180,714.64,11241348294577544
181,717.015,12199581197578464
182,719.312,15279301607039900
183,721.578,16371894650280906
184,723.921,13390990500544018
185,726.296,20912680395078564
186,728.5,18406362300765240
187,730.781,15451589217339406
188,733.078,18100392214748168
189,735.328,28877986844735060
190,737.609,19381294936363200
191,739.843,20061188336274412
192,742.25,20031114646447996
193,744.546,20718920307827276
194,746.843,21909749940342996
195,749.093,21392766020079376
196,751.406,24226312839706904
197,753.781,27061031451580904
198,756.093,20464977754636876
199,758.406,32020472165027144
200,760.765,25706400451658328
201,763.062,28572490268040084
202,765.343,22764501575918836
203,767.687,29881275749412528
204,769.89,34798203545394812
205,772.218,36042614588659816
206,774.546,27491495701418608
207,776.75,34375565850701500
208,778.968,39058333901826872
209,781.171,42425319692667464
210,783.546,46418013568077968
211,785.875,44071492048801192
212,788.171,44815923208864832
213,790.328,54770932523416328
214,792.734,73613676329473200
215,795.062,66124799009165696
216,797.218,58987486852474704
217,799.375,54275604449856072
218,801.531,73976693023537520
219,803.796,71553926491619016
220,806.078,83148725301132736
221,808.25,88190844571230320
222,810.5,100206803245871952
223,812.656,101738731147843456
224,814.859,100756461325165632
225,817.015,98288907412479584
226,819.187,128401535670283024
227,821.328,120618700594289248
228,823.5,127345246442830576
229,825.656,134992283649764768
230,827.828,154503538094443456
231,829.984,166518523274240352
232,832.125,188925839963798080
233,834.265,183064591459179648
234,836.421,212411644064719040
235,838.578,212964157059055008
236,840.734,234536981455540704
237,842.875,238945414536168288
238,845.015,252251704370886656
239,847.171,282126320597140768
240,849.328,326356890261722432
241,851.484,319008617905634432
242,853.64,318706843901250560
243,855.781,351604817860653440
244,857.937,375651748406437952
245,860.078,373912422511678464
246,862.25,400917754983152384
247,864.406,396915491300023232
248,866.546,428937921609046208
249,868.703,472337333930611008
250,870.859,495760068958610816
251,873,495517521211470848
252,875.156,519011625209770048
253,877.312,580646887000188800
254,879.468,572364948767053376
255,881.625,600240696687233152
256,883.765,605206317339081856
257,885.921,647750641595966208
258,888.093,623994894880207616
259,890.281,653718605092478208
260,892.453,698370482338212864
261,894.593,737070826676307072
262,896.75,709654887185054208
263,898.89,766999556139405824
264,901.046,760495143006036096
265,903.203,771675864177582848
266,905.343,786891720932732672
267,907.5,807923004701955584
268,909.656,813436378893586816
269,911.796,840369625403881856
270,913.953,875089160229974144
271,916.109,871114451423600256
272,918.265,882063631947081344
273,920.406,919611385278859776
274,922.562,968854957008773248
275,924.718,930151335181872000
276,926.875,970275615444799872
277,929.015,981728776125564032
278,931.171,1000621054848412928
279,933.328,1011892026104798336
280,935.484,1013649890346113024
281,937.64,999802264195059712
282,939.781,1044549094084133632
283,941.921,1048597224135610624
284,944.093,1051647592902310912
285,946.234,1062529634569256320
286,948.39,1069953703009414528
287,950.531,1053772039961094144
288,952.687,1099073028493859072
289,954.843,1127668439581328256
290,957,1151712838714787328
291,959.156,1146938529077144192
292,961.312,1160302091195917824
293,963.468,1150444362137468288
294,965.609,1152132688328957568
295,967.765,1199498658281865984
296,969.906,1147689683640063232
297,972.062,1221013816099200256
298,974.234,1188502785406377984
299,976.39,1230764268816560896
300,978.531,1212089688620571392
301,980.703,1177074279746895872
302,982.859,1245548643379976704
303,985,1239238986190823680
304,987.171,1270475192809159424
305,989.312,1286645606384144128
306,991.468,1331593657689533696
307,993.625,1309176059818088192
308,995.781,1338796208099163904
309,997.937,1331247573744795136
310,1000.093,1263296444839859200
311,1002.25,1274051277927276544
312,1004.406,1336673480215886592
313,1006.546,1317522387820935936
314,1008.718,1381594932177110016
315,1010.875,1322740799951760384
316,1013.031,1310602373354020352
317,1015.187,1337139998774967040
318,1017.343,1295602235351810048
319,1019.484,1306986668601408512
320,1021.64,1308245523816760320
321,1023.812,1366089993314861056
322,1025.984,1396997849235266816
323,1028.14,1412561625090941184
324,1030.312,1365723612667554816
325,1032.5,1401580385132698624
326,1034.687,1336095114081261568
327,1036.875,1391761846277145856
328,1039.062,1380424946319957504
329,1041.25,1314588927437156864
330,1043.437,1340409526207772416
331,1045.64,1373368625457203968
332,1047.828,1307987786432986624
333,1050,1253317744158972416
334,1052.187,1261803502118073088
335,1054.375,1257867098505899520
336,1056.562,1198426642431457536
337,1058.75,1216298961312256768
338,1060.921,1243887247214408960
339,1063.109,1205272381691219968
340,1065.281,1112077486540134400
341,1067.453,1065337878303962496
342,1069.64,910180467773368064
343,1071.843,888156239593434240
344,1074.031,891610622915340288
345,1076.234,822942145080588928
346,1078.437,854994785403127296
347,1080.625,790398851901456896
348,1082.828,795347844636982912
349,1085.015,792923428368744448
350,1087.187,754849137069769216
351,1089.375,747382144544824448
352,1091.562,749393079552530560
353,1093.734,729017367759012608
354,1095.921,739334405593609344
355,1098.109,686560307071170432
356,1100.296,686754478212631424
357,1102.484,673545228991561856
358,1104.671,705171107408819072
359,1106.875,697218994391822336
360,1109.062,705282393819444480
361,1111.25,705405303736447360
362,1113.437,729366910129409792
363,1115.625,744808546531586048
364,1117.812,806421703242180480
365,1120,764363324893666816
366,1122.203,753764489496017280
367,1124.39,785129287857641088
368,1126.578,768332795755053056
369,1128.781,776541644404385152
370,1130.953,786979070293035648
371,1133.14,728154263123629440
372,1135.328,742190583144197632
373,1137.515,730417575266595840
374,1139.687,697152665899462016
375,1141.875,693801249042341760
376,1144.062,679614113648042624
377,1146.25,672295161308317312
378,1148.453,635966063703148160
379,1150.625,635780552288016896
380,1152.812,613372267676851840
381,1155.015,589857937040030464
382,1157.234,583310312707421184
383,1159.437,580164481670606336
384,1161.609,601933181307556096
385,1163.796,557551576462058240
386,1165.984,557112477769751808
387,1168.171,519651469018790272
388,1170.359,509512904184025664
389,1172.531,490643855742526976
390,1174.718,504587192417358976
391,1176.921,490945453401702528
392,1179.125,463108442485518592
393,1181.312,448606111231061632
394,1183.484,453875860778437312
395,1185.671,419895061943570176
396,1187.859,427864260248556416
397,1190.046,412139007970949056
398,1192.218,384784768727600512
399,1194.406,380275752895184704
400,1196.609,368238463608304768
401,1198.81,372654120110059136
402,1201.01,347258807721498176
403,1203.2,351342809417305088
404,1205.41,319454591052194816
405,1207.61,315166068363007040
406,1209.81,321361265873470464
407,1212,304131216725859264
408,1214.19,323496992162904320
409,1216.39,276778112083562496
410,1218.59,262001661303954304
411,1220.78,257955893678758752
412,1222.97,256086608484717664
413,1225.16,242931026926609504
414,1227.34,238764799062459200
415,1229.51,227938559245040416
416,1231.7,213573258064793600
417,1233.89,195644011001477664
418,1236.06,212690323777521312
419,1238.26,202813062022951616
420,1240.45,207799913011617504
421,1242.66,207504734233081024
422,1244.84,191803227592952544
423,1247.03,172103362817899936
424,1249.2,181072243588468896
425,1251.39,164463699852655968
